frequenza (Hz),tensione misurata (mV)
100,464
200,464
500,464
1000,464
2000,464
5000,464
10000,464
20000,464
25530,448
29500,424
31030,408
32610,384
34170,360
35220,336
36160,320
37180,300
37850,288
41560,232
42950,214
45430,188
48970,166
55910,136
65430,112
88140,82
111300,68
219500,40
508800,24
